date,open_price,close_price,lowest_price,highest_price,volume
2020-05-31,111.28,111.42,110.6,111.88,278238
2020-06-01,111.75,112.07,110.94,112.47,227559
2020-06-02,112.7,113.28,112.7,114.1,198392
2020-06-03,113.5,112.14,111.015,113.5,184116
2020-06-04,113.8,113.4,112.905,114.28,239028
2020-06-07,112.82,113.58,112.29,114,247095
2020-06-08,112.78,112.47,111.91,113.45,294470
2020-06-09,113,111.64,110.82,113,369478
2020-06-10,110,104.25,104.21,110.61,379704
2020-06-11,106.69,105.36,103.08,107.53,250253
2020-06-14,103.44,105.41,103.065,106.54,239519
2020-06-15,108.3,107.39,106.86,109.09,255097
2020-06-16,108.19,106.91,106.37,108.65,209543
2020-06-17,106.28,106.99,105.97,107.97,219169
2020-06-18,107.21,107.6,106.1,107.99,348324
2020-06-21,106.94,107.55,105.5,107.67,243740
2020-06-22,108.46,107.44,106.92,108.46,229709
2020-06-23,106.58,105.94,105.85,107.52,435120
2020-06-24,105.41,107.6,103.78,107.63,265237
2020-06-25,107.12,107.72,106.17,108.69,925877
2020-06-28,108.24,109.25,107.89,110.19,190553
2020-06-29,109.13,111.98,109.13,112.28,422835
2020-06-30,111.91,112.48,110.95,112.665,249922
2020-07-01,113.44,114.97,113.44,115.01,273792
2020-07-05,115.99,115.26,114.18,116.66,335743
2020-07-06,114.64,115.15,114.18,116,348679
2020-07-07,114.79,112.93,112.59,115.75,207555
2020-07-08,113.16,113.76,111.405,114.14,309433
2020-07-09,114.17,114.95,112.395,115.17,245431
2020-07-12,114.96,113.43,113.27,116.265,292189
2020-07-13,113.76,116.31,113.69,116.5,195163
2020-07-14,117.44,117.9,116.54,118.29,330248
2020-07-15,118.04,117.24,116.8,118.49,254828
2020-07-16,118,119.4,117.34,119.71,252465
2020-07-19,119.4,119.29,118.27,119.75,185113
2020-07-20,119.58,118.18,117.67,119.87,396438
2020-07-21,118.25,118.5,117.41,118.98,416615
2020-07-22,118.39,118.44,118.09,119.23,289504
2020-07-23,119,118.85,118.38,119.785,246546
2020-07-26,118.83,119.85,118.5,120.45,284163
2020-07-27,119.81,118.05,117.78,119.81,210230
2020-07-28,118.72,118.81,117.33,119.41,253302
2020-07-29,117.75,117.91,116.7,118.91,361412
2020-07-30,115,115.2,111.22,117.9,678838
2020-08-02,116.85,118.66,114.85,119.68,297022
2020-08-03,118.95,118.62,118.22,120.18,235426
2020-08-04,119.56,118.36,118.22,120.67,166983
2020-08-05,118.82,117.66,116.68,120.11,248569
2020-08-06,117.07,119.25,116.78,119.37,203563
2020-08-09,119.58,117,116.9,119.58,205998
2020-08-10,118.02,116.74,116.53,119.35,215520
2020-08-11,116.92,118.09,116.75,118.57,176122
2020-08-12,117.24,118.52,117.24,119.47,215544
2020-08-13,117.88,118.49,117.7,119.635,135917
2020-08-16,119.14,118.25,118.01,119.92,162212
2020-08-17,117.91,117.88,116.77,118.64,173140
2020-08-18,118.7,117.69,117.32,119.37,147478
2020-08-19,117.06,117.55,116.6,118.125,160895
2020-08-20,117.12,117.8,116.4,118.35,200668
2020-08-23,118.2,119.11,118.2,119.76,228761
2020-08-24,119.54,118.13,117.93,119.54,115221
2020-08-25,117.99,118.6,117.56,119,121260
2020-08-26,118.63,120.05,118.5,120.62,211704
2020-08-27,119.7,118.13,118,119.7,296637
2020-08-30,118.58,118.39,117.78,119.16,184176
2020-08-31,117.94,119.5,117.94,119.64,135427
2020-09-01,119.75,122.26,118.97,122.44,155004
2020-09-02,122.28,119.17,118.5,122.28,229559
2020-09-03,120.04,118.72,116.49,120.3,225992
2020-09-07,118.13,116.06,116.04,118.13,166997
2020-09-08,116.64,117.89,116.64,118.63,156014
2020-09-09,118.17,117.19,116.71,118.91,254552
2020-09-10,117.88,118.36,117.13,118.71,125387
2020-09-13,119.37,119.08,118.47,120.06,130967
2020-09-14,119.44,118.33,118.12,119.8,126408
2020-09-15,119.58,117.77,117.57,119.58,236656
2020-09-16,116.5,115.96,115.08,117.24,355994
2020-09-17,116.58,115.04,114.23,116.75,604736
2020-09-20,113.6,113.45,111.82,114.04,253896
2020-09-21,113.97,114.33,113.56,114.67,294102
2020-09-22,114.2,112.14,111.71,114.53,173892
2020-09-23,111.9,112.26,111.16,113.17,275032
2020-09-24,111.46,112.1,111.46,112.58,255839
2020-09-27,113.17,112.36,112.04,114.22,231223
2020-09-28,112.06,112.62,111.745,113.35,236629
2020-09-29,113.27,113.2,112.5,114.06,201780
2020-09-30,113.45,113.7,113.14,114.97,169001
2020-10-01,112.31,112.85,112.31,114.175,168281
2020-10-04,113.36,114.55,113.21,114.93,152575
2020-10-05,115.01,114.56,113.92,115.9,225516
2020-10-06,115.09,114.98,114.5,116.17,174607
2020-10-07,115.8,116.52,115.52,116.79,139926
2020-10-08,118.12,116.81,116.185,118.39,156855
2020-10-11,117.05,118.04,116.7,118.825,139152
2020-10-12,117.73,117.56,117.25,118.91,160908
2020-10-13,117.5,116.44,116.04,118.03,101550
2020-10-14,114.72,116.34,114.22,116.59,126386
2020-10-15,116.71,116.35,116.19,117.23,98954
2020-10-18,116.64,115.15,114.58,116.64,115074
2020-10-19,116.05,116.96,115.22,117.56,196591
2020-10-20,117.27,117.74,117.27,118.76,134813
2020-10-21,117.89,118.31,116.745,118.475,165374
2020-10-22,118.75,118.35,117.48,118.97,107060
2020-10-25,117.35,117.46,115.93,117.49,115249
2020-10-26,117.17,115.65,115.61,117.19,126182
2020-10-27,114.11,112.34,112.25,114.61,171553
2020-10-28,112.3,112.94,110.3445,113.1,280968
2020-10-29,116.25,114.09,113.54,116.76,381070
2020-11-01,115.17,118.19,114.67,118.29,216987
2020-11-02,118.5,119.56,118.329,121.46,245802
2020-11-03,120,119.05,118.1,120.02,153081
2020-11-04,120.61,122.91,120.43,123.1,187373
2020-11-05,123.59,123.6,122.47,124.61,223676
2020-11-08,127.62,123.17,122.11,128.86,340436
2020-11-09,123.39,127.61,122.9466,128.8,327299
2020-11-10,127.75,125.27,124.365,127.75,196830
2020-11-11,124.24,124.27,122.59,125.21,127541
2020-11-12,124.85,125.07,124.1,126,127071
2020-11-15,126.28,126.86,125.57,127,208990
2020-11-16,126.26,127.36,125.7,128.1,193782
2020-11-17,127.43,126.37,125.97,127.86,174016
2020-11-18,126.7,127.23,126,127.615,215093
2020-11-19,127.51,127.81,127.19,128.36,240349
2020-11-22,128.06,126.86,126.4024,129.12,183816
2020-11-23,128.16,127.88,126.875,128.47,241485
2020-11-24,128.48,126.29,125.77,128.48,138491
2020-11-26,126.55,127.24,126.08,127.3,67786
2020-11-29,126.79,126.32,125.685,126.93,205816
2020-11-30,127.15,127.82,126.42,128.58,166776
2020-12-01,127.36,126.26,125.72,128.05,135337
2020-12-02,126.07,125.87,125.15,127.11,140555
2020-12-03,125.48,127.68,125.48,127.8,145778
2020-12-06,127.99,128.63,127.64,128.99,116030
2020-12-07,128.29,129.19,127.9381,130.9,162681
2020-12-08,129.13,129.53,128.66,130.18,147847
2020-12-09,129.47,130.47,129.02,131.09,249398
2020-12-10,129.59,130.45,129.59,131.1,166609
2020-12-13,131.05,128.41,128.2,131.99,208644
2020-12-14,128.56,130.26,128.31,130.65,159989
2020-12-15,130.99,131.1,130.2,131.7399,267618
2020-12-16,131.29,133.14,131,133.69,298838
2020-12-17,134,134.1,133.64,134.67,700519
2020-12-20,132.78,134.89,131.5,135,213500
2020-12-21,134.65,134.5,134.01,136.22,258447
2020-12-22,134.52,134.53,134.45,135.75,192474
2020-12-23,135,135.7,134.65,136.37,85108
2020-12-27,136.19,135.68,135.055,137.14,101583
2020-12-28,136.27,135.31,134.8387,136.75,96369
2020-12-29,135.91,136.39,135.456,137.36,100701
2020-12-30,136.77,136.89,135.61,137.32,170395
2021-01-03,135.92,134,133.68,137.97,327422
2021-01-04,134.13,133.7,133.54,135.29,262716
2021-01-05,134.22,137.72,134.22,137.97,290623
2021-01-06,137.52,139.7,136.505,140,194994
2021-01-07,139.57,139.07,137.755,140.62,143024
2021-01-10,139.5,138.79,138.38,139.87,119158
2021-01-11,138.81,138.15,137.09,139.23,202415
2021-01-12,137.95,138.58,136.14,139.58,246658
2021-01-13,138.5,139.45,137.52,140.71,183526
2021-01-14,139.04,138.83,138.37,141.33,152202
2021-01-18,139.58,137.26,137.25,140.62,224921
2021-01-19,137.73,140.62,137.49,140.75,256369
2021-01-20,140.27,138.11,138.01,141.125,210507
2021-01-21,137.86,138.19,137.11,138.38,229404
2021-01-24,138.16,139.57,137.85,139.92,190518
2021-01-25,139.43,138.85,137.08,140,127935
2021-01-26,137.53,133.25,133.15,137.53,188819
2021-01-27,134.08,135.25,133.6064,135.8,168319
2021-01-28,134.43,132.97,131.82,135.36,379928
2021-01-31,134.13,134.09,131.805,134.39,186157
2021-02-01,135.05,136.94,134.74,138.12,194787
2021-02-02,136.16,136.56,135.385,137.3,141668
2021-02-03,136.12,138,135,138.4,252818
2021-02-04,139.46,140.66,138.715,140.73,179828
2021-02-07,141.25,141.98,140.53,142,173867
2021-02-08,141.96,142.17,141.22,142.89,184684
2021-02-09,143,143.25,142.505,144.105,152312
2021-02-10,143.5,142.97,142.06,144.32,197869
2021-02-11,142.38,144.63,142.38,144.76,105709
2021-02-15,144.61,143.6,142.9,144.72,178906
2021-02-16,143.75,143.21,142.445,144.175,210053
2021-02-17,142.62,140.99,140.99,143.18,209756
2021-02-18,138.57,132.24,131.61,138.57,496579
2021-02-21,131.25,129.1,127.5,131.37,350663
2021-02-22,127.82,128.28,126.78,128.72,496655
2021-02-23,128.26,128.76,127.8,129.04,214650
2021-02-24,128.77,130.3,128.77,130.91,380106
2021-02-25,131.06,130.07,129.555,131.57,387557
2021-02-28,130.78,130.6,129.875,132,284590
2021-03-01,130.44,130.35,129.47,130.6646,369113
2021-03-02,130.37,131.05,129.5037,132.18,221838
2021-03-03,130.89,130.4,130.125,131.9,494167
2021-03-04,131.14,134.09,130.41,134.14,206068
2021-03-07,134.83,137.71,134.1,138.48,235528
2021-03-08,138.68,137.69,137.68,140.67,252365
2021-03-09,138.21,139.38,137.935,140.12,151921
2021-03-10,139.19,139.38,138.74,140.415,172347
2021-03-11,140,140.77,139.2648,141.24,220486
2021-03-14,141.78,142.13,141.015,143.03,363485
2021-03-15,141.71,140.5,139.3316,142.1,282823
2021-03-16,139.91,141.28,139.376,141.74,183157
2021-03-17,141.34,141.51,140.94,142.47,175844
2021-03-18,142.06,139.31,139.04,142.33,650934
2021-03-21,138.97,141.59,138.26,141.86,250530
2021-03-22,140.53,140.77,140.16,142.56,334309
2021-03-23,141.16,141.84,141.16,144.33,303552
2021-03-24,141.4,142.47,140.45,143.23,267490
2021-03-25,143,144.82,142.19,144.82,288473
2021-03-28,144.24,144.77,143.39,145.9,275677
2021-03-29,144.33,143.08,142.6,144.41,249377
2021-03-30,143.03,141.67,141.23,143.47,410223
2021-03-31,141.99,143.87,141.38,143.98,230075
2021-04-04,144.95,144.69,143.34,144.95,197422
2021-04-05,144.04,145.97,143.32,145.99,207546
2021-04-06,145.28,143.59,143.38,145.5,190238
2021-04-07,143.8,143.68,142.19,143.96,159620
2021-04-08,144.42,145.2,143.28,145.3,153267
2021-04-11,144.68,146.21,144.68,146.38,101275
2021-04-12,146.6,146.33,145.44,147.01,162230
2021-04-13,144.5,145.81,144.5,146.15,188171
2021-04-14,146.92,147.2,146.03,147.895,185979
2021-04-15,149.14,148.08,147.57,149.59,326907
2021-04-18,148.23,149.71,147.75,149.79,207473
2021-04-19,147,150.42,146.67,150.75,200032
2021-04-20,150.15,151.94,150.15,152.36,193875
2021-04-21,152.02,150.07,149.94,152.02,280304
2021-04-22,150.29,151.45,149.83,151.74,189253
2021-04-25,151.75,150.92,150.9,152.18,195696
2021-04-26,150.1,151.64,149.48,151.67,216395
2021-04-27,151.43,151.12,151.05,153.07,196459
2021-04-28,151.44,150.92,150.4,152.15,227195
2021-04-29,150,150.81,147.9,151.9371,367667
2021-05-02,152.16,152.46,151.74,153.2,216302
2021-05-03,152.89,155.02,152.89,156.14,212005
2021-05-04,155.3,154.18,153.39,155.3,190492
2021-05-05,154.13,156.52,153.64,156.63,241686
2021-05-06,155.55,157.56,155.55,157.93,188808
2021-05-09,157.74,155.48,155.39,158.9721,228841
2021-05-10,154.55,153.99,153.7236,155.6581,302115
2021-05-11,153.61,151.61,151.61,154.55,167430
2021-05-12,151.4,154.62,151.34,155.29,310175
2021-05-13,154.97,153.54,153.18,155.29,174422
2021-05-16,153.11,153.11,152.23,154.09,137768
2021-05-17,153.41,150.92,150.86,154,173459
2021-05-18,150,149.54,148.6,151.04,162730
2021-05-19,149.27,149.74,149.04,150.61,124445
2021-05-20,149.93,149.63,148.88,150.58,135972
2021-05-23,150.47,149.26,148.955,150.73,143760
2021-05-24,149.64,147.73,147.47,150.115,200380
2021-05-25,148.5,147.86,147.17,149.39,114848
2021-05-26,148.62,146.77,146.48,149.15,173377
2021-05-27,147.29,147.31,146.42,147.5,147475
2021-05-31,147.98,146.88,146.61,148.81,174935
2021-06-01,146.85,145.66,145.12,147.885,284854
2021-06-02,145.48,145.4,144.74,146.12,225267
2021-06-03,146.04,145.56,144.78,146.265,153097
2021-06-06,145.53,142.52,142.03,146.09,186100
2021-06-07,142.53,142.78,141.12,142.905,184548
2021-06-08,142.57,142.17,141.64,143.205,175797
2021-06-09,142.39,144.99,142.23,145.05,217131
2021-06-10,145.26,145.83,144.24,146.2512,153868
2021-06-13,146,143.49,143.07,146,224736
2021-06-14,143.54,144.33,143.365,144.91,215436
2021-06-15,144.45,142.62,142.44,145.19,169871
2021-06-16,142.76,141.51,139.97,143.6002,161254
2021-06-17,140.75,140.1,139.91,141.9,344126
2021-06-20,140.98,141.58,140.17,142.2,235212
2021-06-21,141.89,141.63,141.16,142.655,209457
2021-06-22,141.39,140.17,140.1,142.16,229324
2021-06-23,140.93,140.18,139.7875,140.93,143684
2021-06-24,140.18,140.92,140.11,141.49,636539
2021-06-27,141.08,140.71,139.73,141.42,220060
2021-06-28,140.81,140.28,140.06,141.97,153301
2021-06-29,140.32,140.84,140.288,141.92,187484
2021-06-30,141.11,141.12,140.9,141.7,226782
2021-07-01,141.48,140.41,140.055,141.935,122852
2021-07-05,140.4,140.05,138.64,140.87,275006
2021-07-06,139.82,141.02,139.82,141.46,221053
2021-07-07,139.94,139.27,139.01,140.6,155927
2021-07-08,139.85,141.18,139.76,141.28,231135
2021-07-11,140.82,140.42,140.05,141.01,175203
2021-07-12,140.21,138.5,138.36,141.21,224799
2021-07-13,138.67,138.44,138.01,139.15,181912
2021-07-14,137.75,138.56,137.3179,139.01,157716
2021-07-15,139.01,139.04,138.4,140.35,179572
2021-07-18,138.04,137.13,136.375,138.93,294351
2021-07-19,137.3,137.02,137,139.65,295834
2021-07-20,137.3,136.06,135.93,138.01,158803
2021-07-21,136.33,134.67,134.66,136.74,204373
2021-07-22,134.98,136.24,134.285,136.28,176369
2021-07-25,136.76,136.72,135.9,137.13,192221
2021-07-26,136.11,136.76,135.39,138.25,151361
2021-07-27,136.52,137.65,136.225,137.815,166059
2021-07-28,138.72,139.05,138.72,140.015,315950
2021-07-29,136,128.92,128.18,139.51,842429
2021-08-01,128.44,129.91,127.69,130.58,453619
2021-08-02,129.55,128.63,127.67,129.74,418304
2021-08-03,128.76,126.77,126.32,129.4,294483
2021-08-04,127.44,127.5,126.64,128.2,158039
2021-08-05,128.08,128.43,127.92,129.46,184593
2021-08-08,128.7,130.08,128.62,130.74,297217
2021-08-09,129.31,129.2,128.955,131.21,200446
2021-08-10,130.19,131.63,129.17,132.32,305931
2021-08-11,132.54,132.68,131.91,133.6,247773
2021-08-12,132.89,133.05,132.51,133.89,174251
2021-08-15,132.59,132.88,131.66,133.17,106271
2021-08-16,132.33,133.01,131.6,133.14,213098
2021-08-17,132.28,132.05,132.04,133.098,110842
2021-08-18,131.44,132.41,131.4,132.9535,94039
2021-08-19,132.1,133.52,131.934,133.91,118563
2021-08-22,134.17,132.96,132.49,134.55,111239
2021-08-23,132.95,132.96,132.22,133.72,85735
2021-08-24,133.08,134.13,132.94,134.5,115978
2021-08-25,133.6,132.66,132.48,133.775,133592
2021-08-26,133.35,134.53,133.3,134.95,180679
2021-08-29,135.16,135.23,135,136.23,122282
2021-08-30,135.56,134.8,134.22,135.95,154055
2021-08-31,135.11,135.01,134.14,135.5,135818
2021-09-01,135.5,135.14,134.23,136.22,165545
2021-09-02,135.28,135.15,134.93,136.19,112691
2021-09-06,134.72,131.08,130.93,134.72,134959
2021-09-07,130.34,130.88,130.34,131.35,325204
2021-09-08,130.41,128.63,128.37,131.12,227704
2021-09-09,128.27,125.84,125.82,129.3,340991
2021-09-12,125.46,124.76,123.76,126.115,239849
2021-09-13,125.13,124.58,124.22,126.42,186002
2021-09-14,123.9,124.63,123.3,125.425,208199
2021-09-15,124.47,122.3,122.04,125.32,176805
2021-09-16,122.2,121.23,120.72,122.635,568376
2021-09-19,119.76,121.86,119.54,121.88,289162
2021-09-20,121.96,120.06,119.83,122.32,240573
2021-09-21,120.38,120.28,119.44,121.205,235024
2021-09-22,120.84,121.01,120.28,121.66,162149
2021-09-23,120.66,120.36,120.27,121.41,186267
2021-09-26,120.18,120.33,119.791,121.13,206565
2021-09-27,120.37,120.03,118.88,120.87,230812
2021-09-28,120,120.38,120,121.29,237584
2021-09-29,120.79,119.35,119.3,121.43,315874
2021-09-30,119.84,121.58,118.61,122.315,259773
2021-10-03,121.5,122.29,120.99,122.65,241877
2021-10-04,121.88,121.66,120.62,122.87,249236
2021-10-05,121.07,123.1,120.45,123.24,240857
2021-10-06,123.28,124.26,123.23,126.04,252691
2021-10-07,124.59,124.51,123.76,125.09,218952
2021-10-10,124.47,124.57,124.27,126.205,182791
2021-10-11,124.12,124.49,123.85,125.21,99752
2021-10-12,125.19,127.39,124.76,127.57,266429
2021-10-13,127.51,128.01,126.88,128.36,215429
2021-10-14,128.61,128.22,127.71,129.25,193182
2021-10-17,127.64,127.82,126.91,128.69,221111
2021-10-18,128.14,127.55,127.17,128.55,143261
2021-10-19,127.26,128.16,126.93,128.76,179992
2021-10-20,128.04,129.07,127.3,129.56,139686
2021-10-21,128.61,127.77,127.68,129.79,131577
2021-10-24,127.96,127.79,126.71,128.875,216361
2021-10-25,127.59,126.89,126.51,128.275,188493
2021-10-26,126.5,125.32,125.28,127.2,202222
2021-10-27,125.1,125.98,125.1,126.34,218722
2021-10-28,123.42,120.78,119.9,125.43,696439
2021-10-31,119.98,125.18,119.98,125.67,581770
2021-11-01,125.86,127.4,124.5,128.11,275548
2021-11-02,127.49,128.4,126.17,128.5,290007
2021-11-03,128.52,128.55,128.36,129.78,326327
2021-11-04,129.5,131.5,129.13,131.66,335702
2021-11-07,131.95,130.64,129.07,132.27,254995
2021-11-08,130.22,130.36,129.746,131.47,170687
2021-11-09,130.66,129.58,129.17,131.08,146979
2021-11-10,129.77,129.83,128.73,130.5,131765
2021-11-11,130.43,131.49,129.51,131.62,177537
2021-11-14,132.42,132.32,130.8,132.995,190839
2021-11-15,132.26,134.24,132,135.81,402912
2021-11-16,134.49,134.45,132.61,135.2,267262
2021-11-17,134.14,129.64,129.51,134.14,258834
2021-11-18,129.67,130.15,129.475,131.52,212760
2021-11-21,130.5,128.8,128.79,131.49,274477
2021-11-22,128.8,129.7,128.5,130.67,155839
2021-11-23,129.34,128.18,127.711,130.08,220375
2021-11-25,126.51,126.61,126.34,129.09,166980
2021-11-28,128.05,125.87,125.495,128.3,228054
2021-11-29,124.69,119.59,119.32,125.44,593838
2021-11-30,120.67,116.79,116.67,122.43,785990
2021-12-01,117.32,119.65,116.94,120.7,578317
2021-12-02,119.64,118.8,117.63,120.71,368281
2021-12-05,120.23,120.22,118.83,121.22,615408
2021-12-06,121.2,120.28,119.77,121.74,377871
2021-12-07,120.6,120.82,119.46,121.27,210139
2021-12-08,120.22,119.53,119.225,121.01,193599
2021-12-09,120.08,119.74,119.49,120.965,168860
2021-12-12,119.47,118.61,118.2712,120.62,217934
2021-12-13,118,116.95,116.79,119.295,292575
2021-12-14,117.19,118.37,117.19,119.07,309782
2021-12-15,119.24,118.69,118.255,120.19,242642
2021-12-16,118.69,115.89,115.67,118.75,800524
2021-12-19,114.82,113.67,112.37,115.965,291938
2021-12-20,114.23,115.39,113.71,115.89,301775
2021-12-21,115.05,115.39,114.41,116.28,379823
2021-12-22,115.67,116.33,115.125,116.56,223847
2021-12-26,116.64,119.89,116.6,120.03,352150
2021-12-27,120.37,121.44,120.06,122.1,438677
2021-12-28,121.45,122.1,121.45,123.5,953008
2021-12-29,122.5,121.88,121.61,123.5,237166
2021-12-30,121.61,122.48,121.225,122.88,226442
2022-01-02,122.44,120.82,119.29,123,234856
2022-01-03,121,121.38,119.9573,122.92,337335
2022-01-04,121.24,123.06,121.24,124.14,367631
2022-01-05,123.54,122.55,122.01,123.9975,231889
2022-01-06,122.72,123.68,121.97,123.79,335119
2022-01-09,122.95,122.05,121.68,123.89,398428
2022-01-10,122.28,122.52,120.73,122.975,135493
2022-01-11,122.32,121.3,120.62,122.9959,206649
2022-01-12,121.67,121.67,120.37,122.33,193217
2022-01-13,121.28,121.18,119.87,121.49,178973
2022-01-17,120.61,120.37,118.83,121.4,232533
2022-01-18,120.76,121.42,120.5,121.9,252601
2022-01-19,120.82,118.83,118.81,122.31,297725
2022-01-20,119.22,116.38,115.83,120.07,351834
2022-01-23,115.59,117.03,114.03,117.25,329256
2022-01-24,114.72,116.03,113.1,116.935,469961
2022-01-25,115.78,115.19,114.41,117.55,1542526.0
2022-01-26,115.78,113.65,112.67,118.3,263932
2022-01-27,113.83,115.05,112.45,115.1,323081
2022-01-30,115.01,117.3,114.23,117.34,486256
2022-01-31,117.09,117.48,116.45,118.93,214033
2022-02-01,116.7,116.62,116.01,117.02,363591
2022-02-02,116.44,115.19,114.91,117.38,167719
2022-02-03,114.68,115.26,113.66,116.03,242710
2022-02-06,115.62,114.74,114.33,116.03,263267
2022-02-07,115,116.05,114.74,116.435,204194
2022-02-08,117.08,116.55,116.2,117.655,295864
2022-02-09,115.52,114.61,113.66,117.25,267089
2022-02-10,115.04,113.71,112.87,116.44,230590
2022-02-13,113.71,114.1,112.4375,114.51,266626
2022-02-14,114.66,114.1,113.4,116.13,263033
2022-02-15,114.25,114.7,113.1,115.076,271428
2022-02-16,113.96,115.61,113.315,116.26,362421
2022-02-17,116.28,118.44,114.42,121.52,462347
2022-02-21,118.5,119.1,117.32,120.18,437171
2022-02-22,119.74,117.69,117.6,120.305,321074
2022-02-23,116.27,116.87,114.72,117.34,349261
2022-02-24,117.16,120.97,116.82,121.6,260057
2022-02-27,119.47,121.88,119.28,122.03,316349
2022-02-28,121.96,119.1,118.53,122.94,325723
2022-03-01,119.09,118.38,118,120.06,435089
2022-03-02,118.88,119.33,117.41,119.75,196105
2022-03-03,118.05,120.19,117.69,120.39,206665
2022-03-06,119.31,116.52,116.45,120.35,337261
2022-03-07,116.96,110.19,110.04,118.29,382823
2022-03-08,111.18,113.27,111.18,114.38,224768
2022-03-09,111.83,112.26,111.44,113.66,223236
2022-03-10,113.3,112.3,112.24,113.72,237053
2022-03-13,112.82,114.52,112.77,115.91,173771
2022-03-14,115.09,116.81,114.09,116.93,199537
2022-03-15,117.72,116.99,114.36,119.11,266775
2022-03-16,117.24,118.41,115.27,118.51,163294
2022-03-17,118.1,117.74,116.27,118.83,286789
2022-03-20,117.73,118.66,116.665,118.67,309051
2022-03-21,119.78,117.67,117.36,120.46,294056
2022-03-22,117.8,114.67,114.04,118.1,256834
2022-03-23,115,115.85,113.995,116.22,210144
2022-03-24,116.85,117.24,116,117.26,148002
2022-03-27,117.43,116.49,115.01,117.5738,167286
2022-03-28,117.51,119.32,117.51,119.59,184696
2022-03-29,119.57,118.82,118.24,119.57,156595
2022-03-30,118.4,117.5,117.47,119.829,211182
2022-03-31,118.15,119.02,117.29,119.64,400825
2022-04-03,118.72,118.41,115.2,118.72,286349
2022-04-04,117.65,117.73,117.59,119.21,225256
2022-04-05,117.26,118.34,116.35,118.92,194314
2022-04-06,117.91,120,116.63,120.595,331904
2022-04-07,119.81,121.41,119.81,122.23,305272
2022-04-10,121.13,118.96,118.96,122.3,207964
2022-04-11,119.23,117.01,116.395,120.19,187436
2022-04-12,116.89,117.88,116.89,118,120171
2022-04-13,117.42,117.4,116.96,118.7,163341
2022-04-17,116.78,114.01,113.58,117.5359,137099
2022-04-18,114.57,117.23,113.51,117.635,221601
2022-04-19,117.98,119.5,117.3332,119.75,141190
2022-04-20,120.25,118.94,118.335,120.35,178179
2022-04-21,118.6,116.62,116.43,118.6,179875
2022-04-24,116.5,115.4,112.175,116.5,379644
2022-04-25,114.37,110.58,110.44,115.35,295254
2022-04-26,110.94,111.1,110.57,112.99,231456
2022-04-27,111.18,112.1,109.55,112.24,289153
2022-04-28,112.52,114.83,112.52,116.4507,640172
2022-05-01,115.42,113.39,112.07,116.97,456988
2022-05-02,112.99,113.83,112.64,115.365,225358
2022-05-03,113.36,116.75,112.72,116.78,346897
2022-05-04,115.49,112.8,111.8725,116.18,179038
2022-05-05,111.69,111.23,109.76,111.72,331810
2022-05-08,110,107.01,106.655,111.1,276713
2022-05-09,107.56,104.54,103.94,108.63,411834
2022-05-10,104.39,104.06,103.51,107.42,297836
2022-05-11,103.72,106.45,103.25,106.66,389328
2022-05-12,107,107.51,106.76,108.29,226883
2022-05-15,107.29,108.33,106.35,108.42,202521
2022-05-16,110.13,108.96,108.22,110.39,311156
2022-05-17,107.99,104.07,103.57,108.9,325904
2022-05-18,103.39,103.49,102.26,104.6,357006
2022-05-19,104.98,99.72,97.19,105.295,796300
2022-05-22,100.95,104.22,99.665,104.59,545172
2022-05-23,104.5,104.95,102.82,105.615,567448
2022-05-24,103.48,104.45,102.48,105.27,493448
2022-05-25,105.7,106.53,105.28,106.9518,188191
2022-05-26,106.96,108.89,106.96,108.93,178019
2022-05-30,108.08,107.09,106.35,109.43,306050
2022-05-31,107.49,107.25,105.63,107.915,313932
2022-06-01,107.6,109.83,106.83,110.0283,145425
2022-06-02,108.72,108.8,108.235,109.7598,139814
2022-06-05,109.59,109.25,108.33,110.805,207415
2022-06-06,108.64,110.18,108.4,110.34,132946
2022-06-07,108.96,107.71,107.26,109.385,157655
2022-06-08,106.77,105.83,105.8,107.7,193753
2022-06-09,103.58,105.2,103.13,105.89,266773
2022-06-12,102.87,102.01,101.05,103.23,252091
2022-06-13,101.61,99.52,98.39,102.28,227948
2022-06-14,100.3,100.37,98.54,101.24,283340
2022-06-15,98.89,94.77,94.03,98.89,620352
2022-06-16,94.49,97.5,94.48,98.456,458524
2022-06-20,97.98,97.19,97.09,98.7,236117
2022-06-21,96.37,98.46,96.2376,98.84,228179
2022-06-22,98.62,98.93,97.17,99.32,152130
2022-06-23,100.05,102.62,99.6668,102.65,327255
2022-06-26,102.62,103.57,101.99,104.15,185180
2022-06-27,104.22,102.7,101.98,104.37,280199
2022-06-28,102.48,103.39,101.3394,103.89,220930
2022-06-29,102.33,103.21,101.37,103.5,205874
2022-06-30,103.34,104.49,102.16,104.67,262328
2022-07-04,103.34,102.92,100.97,103.34,230164
2022-07-05,103.53,102.64,101.51,103.55,286394
2022-07-06,102.45,103.11,101.85,103.3,221222
2022-07-07,102.73,100.01,100,103.0282,208051
2022-07-10,99.81,99.55,98.47,100.1226,186923
2022-07-11,99.47,100.51,99.22,101.85,284288
2022-07-12,99.73,100.67,99.51,101.31,202511
2022-07-13,99.58,99.3,98.34,99.91,199805
2022-07-14,100.81,100.01,99.21,100.81,195284
2022-07-17,100.57,98.1,97.7,100.95,179934
2022-07-18,98.55,101.03,98.55,101.09,635394
2022-07-19,100.67,101.82,100.66,102.48,458852
2022-07-20,101.91,103.48,101.58,103.595,138850
2022-07-21,103.61,103.6,102.33,103.9837,214586
2022-07-24,103.72,103.92,102.91,104.51,267351
2022-07-25,103.11,103.83,101.88,103.88,262182
2022-07-26,104.24,106.03,103.64,106.54,229187
2022-07-27,106.08,107.82,105.15,107.82,249802
2022-07-28,107.17,107.76,106.385,109.49,424421
2022-07-31,106.3,108.2,105.614,108.65,276995
2022-08-01,107.86,106.59,105.83,108.04,209714
2022-08-02,107.33,107.64,106.44,108.82,260719
2022-08-03,107.2,106.44,105.855,107.22,292585
2022-08-04,105.67,105.65,105.09,106.67,174609
2022-08-07,106.13,107.27,106.006,108,219293
2022-08-08,107.76,107.27,106.49,108,249223
2022-08-09,109.23,109.77,108.045,110.74,152928
2022-08-10,110.64,109.63,109.55,111.29,171052
2022-08-11,110.52,111.08,110.135,111.15,201254
2022-08-14,110.68,111.91,110.68,112.425,146459
2022-08-15,111.16,112.07,110.71,112.26,187650
2022-08-16,111,111.03,110.05,111.47,173063
2022-08-17,110.94,111.03,109.9717,111.14,197318
2022-08-18,111.17,110.16,109.55,111.2599,253376
2022-08-21,109.17,107.92,107.75,109.31,178259
2022-08-22,107.88,106.89,106.01,108.44,177978
2022-08-23,107.37,107.45,106.72,108.065,182976
2022-08-24,107.54,108.97,107.54,108.97,132946
2022-08-25,109.55,104.41,104.17,109.55,152002
2022-08-28,103.97,104,102.79,104.47,146849
2022-08-29,104.44,104.05,102.72,104.665,148892
2022-08-30,104.38,102.81,102.75,104.76,180329
2022-08-31,102.36,102.62,101.33,102.8695,212243
2022-09-01,103.34,101.43,100.72,104.18,205950
2022-09-05,101.26,100.33,99.81,101.88,159334
2022-09-06,100.64,103.24,100.62,103.63,164217
2022-09-07,102.26,104.89,102.13,105.015,137922
2022-09-08,105.68,106.41,104.68,106.82,197127
2022-09-11,107.18,107.11,106.74,108.27,154450
2022-09-12,105.16,104.02,103.98,105.745,271706
2022-09-13,103.81,103.58,102.45,104.31,250694
2022-09-14,103.25,105.2,103.22,105.4,423013
2022-09-15,104.33,102.64,101.4,104.33,579386
2022-09-18,101.85,104.53,101.84,104.55,194369
2022-09-19,103.45,101.18,100.69,103.45,157490
2022-09-20,101.79,99.67,99.63,102.28,173491
2022-09-21,99.14,98.12,97.27,99.14,199227
2022-09-22,96.93,98.08,96.93,98.31,274902
2022-09-25,97.5,97.41,96.43,98.45,363989
2022-09-26,97.99,96.06,95.23,98.8,238588
2022-09-27,96.75,98.24,96.0508,98.5,237012
2022-09-28,97.22,96.77,96.27,97.26,206398
2022-09-29,96.12,95.03,94.87,97.76,471485
2022-10-02,96.46,97.44,95.66,98.02,274207
2022-10-03,99.09,99.23,98.51,99.83,262850
2022-10-04,98.09,98.18,97.03,99.48,201289
2022-10-05,97.66,97.74,96.32,98.2,202122
2022-10-06,96.93,93.98,93.6,96.93,118995
2022-10-09,94.39,94.37,93.91,95.47,177259
2022-10-10,93.8,94.74,93.303,95.65,369763
2022-10-11,94.76,93.37,93.27,94.76,147367
2022-10-12,91.07,94.56,90.23,95.025,236982
2022-10-13,95.4,95.08,94.11,95.92,319273
2022-10-16,96.02,97.32,96.0178,97.365,344926
2022-10-17,99.25,99.28,98.1,99.98,281332
2022-10-18,98.71,98.21,97.59,99.21,359450
2022-10-19,98.08,96.07,95.43,98.7,185551
2022-10-20,95.56,97.52,94.53,97.915,176398
2022-10-23,97.9,97.89,97.27,98.8,158470
2022-10-24,96.47,99.21,95.965,99.43,292477
2022-10-25,99.85,99.09,98.96,101.0466,271850
2022-10-26,99.11,99.09,98.87,100.64,216658
2022-10-27,101.95,101.13,99.22,104.115,445333
2022-10-30,99.96,99.15,99.1,100.6,372894
2022-10-31,99.6,97.22,96.88,99.6,301254
2022-11-01,97.19,94.76,94.57,97.75,268420
2022-11-02,94.28,94.71,92.55,95.02,278303
2022-11-03,96.44,98.77,96.23,98.78,209127
2022-11-06,99.19,100.49,97.98,100.52,180746
2022-11-07,101,100.35,100.13,101.76,153120
2022-11-08,100.23,99.12,98.55,100.88,165300
2022-11-09,102.83,102.33,101.04,103.2517,265971
2022-11-10,102.84,104.25,101.46,105.075,292552
2022-11-13,103.61,104.4,103.61,105.27,238446
2022-11-14,105.83,104.69,104.28,107.01,272476
2022-11-15,104.86,104.92,104.695,105.89,139311
2022-11-16,103.71,104.61,103.71,105.07,162690
2022-11-17,106.11,106.04,104.61,106.93,213199
2022-11-20,106.1,105.14,104.93,106.7,193315
2022-11-21,105.24,106,105.24,106.655,284010
2022-11-22,105.99,106.19,105.58,106.78,202079
2022-11-24,106.55,105.91,105.56,106.5514,114719
2022-11-27,105.04,103.5,103.24,105.49,208494
2022-11-28,103,103.31,102.93,104.1,181438
2022-11-29,102.89,106.14,101.5,106.18,297906
2022-11-30,106.78,107.09,106.505,107.78,156570
2022-12-01,106.26,108.05,106.1,108.55,167366
2022-12-04,106.86,106.7,105.68,106.93,153805
2022-12-05,106.55,107,105.37,107.08,247750
2022-12-06,106.73,106.3,106.202,108.16,152844
2022-12-07,106.45,107.93,106.45,107.94,190764
2022-12-08,107.83,108.06,107.65,108.98,316746
2022-12-11,108.46,108.08,107.49,108.78,209108
2022-12-12,110.38,108.21,107.578,111.11,328373
2022-12-13,108.44,108.24,107.23,110.28,302454
2022-12-14,107.7,107.65,107.24,108.55,229997
2022-12-15,107.11,107.44,106.39,108.26,540619
2022-12-18,107.32,106.26,105.78,108.36,269761
2022-12-19,106.43,107.12,106.27,108.13,193278
2022-12-20,107.98,110.64,107.5698,110.64,388504
2022-12-21,109.5,108.56,107.46,110.8,213770
2022-12-22,109.14,110.01,108.35,110.2,161517
2022-12-26,109.9,110.87,109.6315,111.02,101728
2022-12-27,111.06,109.17,109.012,111.91,162674
2022-12-28,109.92,110.79,109.375,111.17,128745
2022-12-29,110.5,109.98,109.02,110.74,172340
2023-01-02,110.58,110.26,109.45,111.07,239234
2023-01-03,111.26,111.23,110.31,112.21,217226
2023-01-04,110.64,112.12,109.12,113.03,310027
2023-01-05,113.38,114.06,112.74,114.4,181525
2023-01-08,114.63,113.33,113.28,115.68,161842
2023-01-09,113.19,113.43,112.96,114.34,162998
2023-01-10,113.58,113.46,113.45,114.43,141308
2023-01-11,113.69,113.5,112.3961,113.785,179058
2023-01-12,113.21,113.97,113.21,114.31,177702
2023-01-16,114.18,114.06,112.83,114.53,204526
2023-01-17,114.49,111.97,111.92,114.6,118896
2023-01-18,111.59,111.99,110.33,112.41,177398
2023-01-19,112.46,113.29,111.6901,113.29,180755
2023-01-22,113.2,113.36,112.46,113.73,165456
2023-01-23,113.03,112.84,111.76,113.145,172566
2023-01-24,111.84,112.07,110.488,112.51,181163
2023-01-25,112.51,112.79,111.82,112.89,139024
2023-01-26,112.51,112.73,111.855,112.94,204294
2023-01-29,111.71,113.25,111.46,113.329,200229
2023-01-30,113.83,115.64,113.315,116.32,630904
2023-01-31,114.45,117.09,114.39,118.0599,190891
2023-02-01,117.09,117.3,116.58,118.34,271605
2023-02-02,116.59,115.42,115.2125,116.59,284051
2023-02-05,114.56,113.44,113.44,115.5,180382
2023-02-06,112.67,112.19,110.7101,112.825,189116
2023-02-07,111.72,110.56,110.55,112.16,138779
2023-02-08,111.48,109.25,109.24,111.81,180195
2023-02-09,109,109.21,107.885,109.22,217891
2023-02-12,109.4,109.8,109.25,110.54,184949
2023-02-13,109.8,109.76,109.6589,111.2,122473
2023-02-14,108.82,110.39,108.57,110.4,155197
2023-02-15,108.72,110.69,108.18,111.53,372175
2023-02-16,115,116.69,114.02,121.28,590720
2023-02-20,116.5,115.08,113.11,116.5,463855
2023-02-21,114.61,114.72,114.43,116,257660
2023-02-22,114.81,114.56,113.08,115.555,196443
2023-02-23,113.8,114.77,112.99,115.04,215098
2023-02-26,115.84,116.69,115.5126,117.25,215322
2023-02-27,116.65,116.72,116.59,118.11,261479
2023-02-28,116.18,117.46,116.18,117.61,194731
2023-03-01,117.42,118.58,117.23,119,205047
2023-03-02,118.97,120.25,117.85,120.25,225357
2023-03-05,120.13,116.83,116.58,120.19,265875
2023-03-06,116.71,116.67,116.2178,117.34,247066
2023-03-07,116.41,115.33,115.1714,116.7,281690
2023-03-08,115.96,114.57,114.531,116.41,189712
2023-03-09,114.64,112.56,112.275,114.64,201355
2023-03-12,111.45,111.97,111.45,113.11,245480
2023-03-13,113.87,115.08,113.49,115.26,261457
2023-03-14,113.46,111.38,110.17,113.75,256158
2023-03-15,110.22,112.68,109.95,113.28,209153
2023-03-16,112.92,110.76,109.95,112.92,393789
2023-03-19,111.8,112.78,111.8,113.47,146437
2023-03-20,114.13,113.02,112.465,114.22,141240
2023-03-21,112.8,112.25,112.14,114.215,176728
2023-03-22,112.15,111.72,110.81,113.445,156888
2023-03-23,111.02,112.97,110.02,112.99,148787
2023-03-26,113.46,113.98,113.46,114.84,170089
2023-03-27,113.77,115.02,113.14,115.12,189823
2023-03-28,115.69,115.87,115.16,115.94,138685
2023-03-29,116.28,115.95,115.05,116.77,148020
2023-03-30,116.52,118.19,116.52,118.27,206327
2023-04-02,117.93,118.65,117.645,118.81,151094
2023-04-03,118.5,117.67,116.78,118.5,183073
2023-04-04,117.74,119.08,117.23,119.2,249720
2023-04-05,119.34,119.06,117.93,119.34,159279
2023-04-09,118.38,119.1,117.97,119.215,174578
2023-04-10,119.2,119.05,118.83,119.99,121846
2023-04-11,119.33,118.39,118.19,119.67,134313
2023-04-12,118.35,119.78,117.89,120,110672
2023-04-13,119.18,119.2,118.31,120.06,233578
2023-04-16,119.5,119.81,118.53,119.81,122358
2023-04-17,119.73,118.59,118.05,119.73,261691
2023-04-18,118.37,118.71,118.06,119.43,252930
2023-04-19,119,119.03,118.515,119.8,296826
2023-04-20,119.32,120.59,118.8,121.07,361462
2023-04-23,120.86,120.4,119.74,121.4199,229624
2023-04-24,119.43,118.07,117.8834,119.95,167516
2023-04-25,117.01,115.75,115.61,117.575,247164
2023-04-26,115.75,116.57,114.63,116.58,361944
2023-04-27,116.51,118.51,116.51,119.565,586715
2023-04-30,119.41,121.64,119.41,122.5,283090
2023-05-01,120.74,120.48,115.73,120.88,359217
2023-05-02,120.47,119.9,119.74,121.01,294338
2023-05-03,119.94,118.8,118.39,120.15,192534
2023-05-04,118.99,121.7,118.99,121.88,171147
2023-05-07,121.86,121.5,120.66,122.34,200362
2023-05-08,120.87,120.58,119.69,121.03,185633
2023-05-09,121.09,119.62,118.495,121.57,227190
2023-05-10,119.48,119.28,118.96,119.83,203949
2023-05-11,119.68,120.79,119.345,120.87,168376
2023-05-14,120.59,120.58,120.035,121.0728,148324
2023-05-15,120.58,118.32,118.205,120.58,180808
2023-05-16,118.82,118.97,117.46,119.04,168597
2023-05-17,118.17,118.99,117.78,119.05,94002
2023-05-18,119.88,119.09,118.6,120.27,156874
